theta(град)   d_times   d_db
0.000000   0.000000   -90.000000
0.090045   0.000002   -57.014929
0.180090   0.000008   -50.995955
0.270135   0.000018   -47.474409
0.360180   0.000032   -44.975706
0.450225   0.000050   -43.037509
0.540270   0.000072   -41.453855
0.630315   0.000097   -40.114870
0.720360   0.000127   -38.954966
0.810405   0.000161   -37.931836
0.900450   0.000199   -37.016595
0.990495   0.000241   -36.188639
1.080540   0.000286   -35.432754
1.170585   0.000336   -34.737387
1.260630   0.000390   -34.093559
1.350675   0.000447   -33.494149
1.440720   0.000509   -32.933418
1.530765   0.000575   -32.406673
1.620810   0.000644   -31.910025
1.710855   0.000718   -31.440216
1.800901   0.000795   -30.994491
1.890946   0.000877   -30.570498
1.980991   0.000962   -30.166213
2.071036   0.001052   -29.779883
2.161081   0.001146   -29.409977
2.251126   0.001243   -29.055154
2.341171   0.001345   -28.714229
2.431216   0.001450   -28.386153
2.521261   0.001560   -28.069990
2.611306   0.001673   -27.764902
2.701351   0.001791   -27.470139
2.791396   0.001912   -27.185022
2.881441   0.002038   -26.908938
2.971486   0.002167   -26.641330
3.061531   0.002301   -26.381692
3.151576   0.002438   -26.129561
3.241621   0.002580   -25.884514
3.331666   0.002725   -25.646161
3.421711   0.002875   -25.414145
3.511756   0.003028   -25.188136
3.601801   0.003186   -24.967830
3.691846   0.003347   -24.752944
3.781891   0.003513   -24.543217
3.871936   0.003683   -24.338406
3.961981   0.003856   -24.138283
4.052026   0.004034   -23.942638
4.142071   0.004216   -23.751273
4.232116   0.004401   -23.564005
4.322161   0.004591   -23.380659
4.412206   0.004785   -23.201074
4.502251   0.004983   -23.025098
4.592296   0.005185   -22.852587
4.682341   0.005391   -22.683406
4.772386   0.005601   -22.517428
4.862431   0.005815   -22.354533
4.952476   0.006033   -22.194607
5.042521   0.006255   -22.037543
5.132566   0.006482   -21.883240
5.222611   0.006712   -21.731600
5.312656   0.006946   -21.582534
5.402701   0.007185   -21.435953
5.492746   0.007427   -21.291775
5.582791   0.007674   -21.149922
5.672836   0.007924   -21.010320
5.762881   0.008179   -20.872896
5.852927   0.008438   -20.737584
5.942972   0.008701   -20.604318
6.033017   0.008968   -20.473036
6.123062   0.009239   -20.343680
6.213107   0.009514   -20.216193
6.303152   0.009794   -20.090521
6.393197   0.010077   -19.966612
6.483242   0.010365   -19.844416
6.573287   0.010656   -19.723887
6.663332   0.010952   -19.604978
6.753377   0.011252   -19.487646
6.843422   0.011556   -19.371849
6.933467   0.011864   -19.257546
7.023512   0.012177   -19.144699
7.113557   0.012493   -19.033270
7.203602   0.012814   -18.923223
7.293647   0.013139   -18.814524
7.383692   0.013467   -18.707140
7.473737   0.013801   -18.601038
7.563782   0.014138   -18.496187
7.653827   0.014479   -18.392559
7.743872   0.014825   -18.290123
7.833917   0.015175   -18.188852
7.923962   0.015528   -18.088720
8.014007   0.015887   -17.989700
8.104052   0.016249   -17.891767
8.194097   0.016615   -17.794897
8.284142   0.016986   -17.699067
8.374187   0.017361   -17.604254
8.464232   0.017740   -17.510437
8.554277   0.018123   -17.417593
8.644322   0.018511   -17.325702
8.734367   0.018903   -17.234744
8.824412   0.019299   -17.144701
8.914457   0.019699   -17.055553
9.004502   0.020104   -16.967282
9.094547   0.020512   -16.879871
9.184592   0.020925   -16.793302
9.274637   0.021342   -16.707559
9.364682   0.021764   -16.622626
9.454727   0.022190   -16.538487
9.544772   0.022620   -16.455126
9.634817   0.023054   -16.372530
9.724862   0.023493   -16.290684
9.814908   0.023936   -16.209573
9.904953   0.024383   -16.129185
9.994998   0.024834   -16.049505
10.085043   0.025290   -15.970522
10.175088   0.025750   -15.892222
10.265133   0.026214   -15.814594
10.355178   0.026683   -15.737625
10.445223   0.027156   -15.661305
10.535268   0.027634   -15.585621
10.625313   0.028115   -15.510563
10.715358   0.028601   -15.436120
10.805403   0.029092   -15.362282
10.895448   0.029587   -15.289038
10.985493   0.030086   -15.216379
11.075538   0.030589   -15.144296
11.165583   0.031097   -15.072777
11.255628   0.031610   -15.001815
11.345673   0.032126   -14.931401
11.435718   0.032647   -14.861525
11.525763   0.033173   -14.792179
11.615808   0.033703   -14.723355
11.705853   0.034237   -14.655044
11.795898   0.034776   -14.587239
11.885943   0.035319   -14.519932
11.975988   0.035866   -14.453115
12.066033   0.036418   -14.386781
12.156078   0.036975   -14.320922
12.246123   0.037536   -14.255531
12.336168   0.038101   -14.190602
12.426213   0.038671   -14.126128
12.516258   0.039245   -14.062101
12.606303   0.039824   -13.998516
12.696348   0.040408   -13.935366
12.786393   0.040995   -13.872645
12.876438   0.041588   -13.810347
12.966483   0.042185   -13.748465
13.056528   0.042786   -13.686994
13.146573   0.043392   -13.625928
13.236618   0.044002   -13.565262
13.326663   0.044617   -13.504990
13.416708   0.045237   -13.445106
13.506753   0.045861   -13.385606
13.596798   0.046489   -13.326485
13.686843   0.047122   -13.267736
13.776888   0.047760   -13.209355
13.866934   0.048402   -13.151338
13.956979   0.049049   -13.093680
14.047024   0.049701   -13.036375
14.137069   0.050357   -12.979420
14.227114   0.051017   -12.922809
14.317159   0.051683   -12.866539
14.407204   0.052353   -12.810604
14.497249   0.053027   -12.755002
14.587294   0.053707   -12.699727
14.677339   0.054390   -12.644776
14.767384   0.055079   -12.590144
14.857429   0.055772   -12.535827
14.947474   0.056470   -12.481823
15.037519   0.057173   -12.428126
15.127564   0.057880   -12.374734
15.217609   0.058592   -12.321642
15.307654   0.059308   -12.268846
15.397699   0.060030   -12.216345
15.487744   0.060756   -12.164133
15.577789   0.061486   -12.112207
15.667834   0.062222   -12.060565
15.757879   0.062962   -12.009203
15.847924   0.063707   -11.958117
15.937969   0.064457   -11.907304
16.028014   0.065211   -11.856762
16.118059   0.065971   -11.806488
16.208104   0.066735   -11.756477
16.298149   0.067504   -11.706727
16.388194   0.068277   -11.657236
16.478239   0.069056   -11.608001
16.568284   0.069839   -11.559018
16.658329   0.070627   -11.510284
16.748374   0.071420   -11.461798
16.838419   0.072218   -11.413557
16.928464   0.073020   -11.365557
17.018509   0.073828   -11.317796
17.108554   0.074640   -11.270272
17.198599   0.075457   -11.222982
17.288644   0.076279   -11.175924
17.378689   0.077106   -11.129095
17.468734   0.077938   -11.082493
17.558779   0.078775   -11.036115
17.648824   0.079617   -10.989959
17.738869   0.080463   -10.944023
17.828915   0.081315   -10.898305
17.918960   0.082171   -10.852802
18.009005   0.083033   -10.807513
18.099050   0.083899   -10.762434
18.189095   0.084770   -10.717564
18.279140   0.085647   -10.672901
18.369185   0.086528   -10.628443
18.459230   0.087414   -10.584188
18.549275   0.088305   -10.540133
18.639320   0.089202   -10.496277
18.729365   0.090103   -10.452618
18.819410   0.091009   -10.409154
18.909455   0.091920   -10.365883
18.999500   0.092837   -10.322803
19.089545   0.093758   -10.279913
19.179590   0.094685   -10.237210
19.269635   0.095616   -10.194693
19.359680   0.096553   -10.152361
19.449725   0.097494   -10.110210
19.539770   0.098441   -10.068241
19.629815   0.099393   -10.026450
19.719860   0.100350   -9.984836
19.809905   0.101312   -9.943399
19.899950   0.102279   -9.902135
19.989995   0.103251   -9.861044
20.080040   0.104229   -9.820124
20.170085   0.105211   -9.779374
20.260130   0.106199   -9.738791
20.350175   0.107192   -9.698375
20.440220   0.108190   -9.658124
20.530265   0.109193   -9.618037
20.620310   0.110202   -9.578111
20.710355   0.111216   -9.538346
20.800400   0.112234   -9.498741
20.890445   0.113258   -9.459293
20.980490   0.114288   -9.420002
21.070535   0.115322   -9.380866
21.160580   0.116362   -9.341884
21.250625   0.117407   -9.303054
21.340670   0.118457   -9.264376
21.430715   0.119513   -9.225848
21.520760   0.120574   -9.187469
21.610805   0.121640   -9.149237
21.700850   0.122711   -9.111152
21.790895   0.123788   -9.073211
21.880941   0.124870   -9.035415
21.970986   0.125957   -8.997761
22.061031   0.127050   -8.960249
22.151076   0.128148   -8.922877
22.241121   0.129251   -8.885645
22.331166   0.130360   -8.848550
22.421211   0.131474   -8.811593
22.511256   0.132594   -8.774772
22.601301   0.133718   -8.738086
22.691346   0.134849   -8.701533
22.781391   0.135984   -8.665114
22.871436   0.137125   -8.628826
22.961481   0.138272   -8.592669
23.051526   0.139423   -8.556642
23.141571   0.140581   -8.520743
23.231616   0.141743   -8.484973
23.321661   0.142911   -8.449329
23.411706   0.144085   -8.413811
23.501751   0.145264   -8.378418
23.591796   0.146449   -8.343148
23.681841   0.147639   -8.308002
23.771886   0.148834   -8.272978
23.861931   0.150035   -8.238075
23.951976   0.151241   -8.203293
24.042021   0.152453   -8.168630
24.132066   0.153671   -8.134085
24.222111   0.154894   -8.099658
24.312156   0.156122   -8.065348
24.402201   0.157356   -8.031155
24.492246   0.158596   -7.997076
24.582291   0.159841   -7.963111
24.672336   0.161092   -7.929261
24.762381   0.162348   -7.895523
24.852426   0.163610   -7.861896
24.942471   0.164878   -7.828381
25.032516   0.166151   -7.794977
25.122561   0.167429   -7.761682
25.212606   0.168714   -7.728496
25.302651   0.170004   -7.695418
25.392696   0.171299   -7.662447
25.482741   0.172600   -7.629584
25.572786   0.173907   -7.596826
25.662831   0.175220   -7.564173
25.752876   0.176538   -7.531625
25.842922   0.177862   -7.499180
25.932967   0.179191   -7.466839
26.023012   0.180526   -7.434600
26.113057   0.181867   -7.402463
26.203102   0.183213   -7.370427
26.293147   0.184566   -7.338492
26.383192   0.185924   -7.306656
26.473237   0.187287   -7.274920
26.563282   0.188657   -7.243282
26.653327   0.190032   -7.211741
26.743372   0.191412   -7.180299
26.833417   0.192799   -7.148952
26.923462   0.194191   -7.117702
27.013507   0.195589   -7.086547
27.103552   0.196993   -7.055487
27.193597   0.198403   -7.024521
27.283642   0.199818   -6.993649
27.373687   0.201239   -6.962870
27.463732   0.202666   -6.932184
27.553777   0.204099   -6.901589
27.643822   0.205538   -6.871086
27.733867   0.206982   -6.840673
27.823912   0.208432   -6.810351
27.913957   0.209888   -6.780119
28.004002   0.211350   -6.749976
28.094047   0.212818   -6.719921
28.184092   0.214291   -6.689955
28.274137   0.215771   -6.660076
28.364182   0.217256   -6.630284
28.454227   0.218747   -6.600579
28.544272   0.220244   -6.570960
28.634317   0.221747   -6.541427
28.724362   0.223255   -6.511979
28.814407   0.224770   -6.482615
28.904452   0.226291   -6.453336
28.994497   0.227817   -6.424140
29.084542   0.229349   -6.395027
29.174587   0.230887   -6.365997
29.264632   0.232432   -6.337050
29.354677   0.233982   -6.308184
29.444722   0.235537   -6.279400
29.534767   0.237099   -6.250696
29.624812   0.238667   -6.222073
29.714857   0.240241   -6.193530
29.804902   0.241821   -6.165067
29.894948   0.243406   -6.136682
29.984993   0.244998   -6.108377
30.075038   0.246595   -6.080150
30.165083   0.248199   -6.052000
30.255128   0.249808   -6.023929
30.345173   0.251424   -5.995934
30.435218   0.253045   -5.968016
30.525263   0.254673   -5.940174
30.615308   0.256306   -5.912408
30.705353   0.257946   -5.884718
30.795398   0.259591   -5.857103
30.885443   0.261242   -5.829562
30.975488   0.262900   -5.802096
31.065533   0.264563   -5.774704
31.155578   0.266233   -5.747386
31.245623   0.267908   -5.720140
31.335668   0.269590   -5.692968
31.425713   0.271277   -5.665868
31.515758   0.272971   -5.638840
31.605803   0.274670   -5.611884
31.695848   0.276376   -5.584999
31.785893   0.278087   -5.558186
31.875938   0.279805   -5.531443
31.965983   0.281529   -5.504771
32.056028   0.283259   -5.478168
32.146073   0.284994   -5.451636
32.236118   0.286736   -5.425173
32.326163   0.288484   -5.398779
32.416208   0.290238   -5.372453
32.506253   0.291998   -5.346197
32.596298   0.293764   -5.320008
32.686343   0.295537   -5.293887
32.776388   0.297315   -5.267834
32.866433   0.299099   -5.241847
32.956478   0.300890   -5.215928
33.046523   0.302686   -5.190075
33.136568   0.304489   -5.164289
33.226613   0.306297   -5.138569
33.316658   0.308112   -5.112914
33.406703   0.309933   -5.087324
33.496748   0.311760   -5.061800
33.586793   0.313593   -5.036341
33.676838   0.315432   -5.010946
33.766883   0.317277   -4.985615
33.856928   0.319128   -4.960349
33.946974   0.320985   -4.935146
34.037019   0.322849   -4.910006
34.127064   0.324718   -4.884930
34.217109   0.326594   -4.859917
34.307154   0.328476   -4.834966
34.397199   0.330364   -4.810078
34.487244   0.332258   -4.785252
34.577289   0.334158   -4.760488
34.667334   0.336064   -4.735785
34.757379   0.337976   -4.711144
34.847424   0.339894   -4.686563
34.937469   0.341819   -4.662044
35.027514   0.343749   -4.637586
35.117559   0.345686   -4.613187
35.207604   0.347628   -4.588849
35.297649   0.349577   -4.564571
35.387694   0.351532   -4.540352
35.477739   0.353493   -4.516193
35.567784   0.355460   -4.492094
35.657829   0.357433   -4.468053
35.747874   0.359412   -4.444071
35.837919   0.361398   -4.420147
35.927964   0.363389   -4.396282
36.018009   0.365387   -4.372475
36.108054   0.367390   -4.348725
36.198099   0.369400   -4.325034
36.288144   0.371416   -4.301400
36.378189   0.373437   -4.277823
36.468234   0.375465   -4.254303
36.558279   0.377499   -4.230840
36.648324   0.379539   -4.207433
36.738369   0.381585   -4.184083
36.828414   0.383637   -4.160790
36.918459   0.385696   -4.137552
37.008504   0.387760   -4.114370
37.098549   0.389830   -4.091243
37.188594   0.391907   -4.068173
37.278639   0.393989   -4.045157
37.368684   0.396078   -4.022196
37.458729   0.398172   -3.999290
37.548774   0.400273   -3.976439
37.638819   0.402379   -3.953643
37.728864   0.404492   -3.930900
37.818909   0.406611   -3.908212
37.908955   0.408735   -3.885578
37.999000   0.410866   -3.862997
38.089045   0.413003   -3.840470
38.179090   0.415146   -3.817997
38.269135   0.417294   -3.795576
38.359180   0.419449   -3.773209
38.449225   0.421610   -3.750895
38.539270   0.423776   -3.728633
38.629315   0.425949   -3.706424
38.719360   0.428128   -3.684267
38.809405   0.430312   -3.662163
38.899450   0.432503   -3.640110
38.989495   0.434699   -3.618110
39.079540   0.436902   -3.596161
39.169585   0.439110   -3.574264
39.259630   0.441325   -3.552418
39.349675   0.443545   -3.530624
39.439720   0.445771   -3.508880
39.529765   0.448003   -3.487188
39.619810   0.450241   -3.465546
39.709855   0.452485   -3.443955
39.799900   0.454735   -3.422415
39.889945   0.456991   -3.400925
39.979990   0.459252   -3.379485
40.070035   0.461520   -3.358096
40.160080   0.463793   -3.336756
40.250125   0.466072   -3.315466
40.340170   0.468357   -3.294226
40.430215   0.470648   -3.273035
40.520260   0.472945   -3.251894
40.610305   0.475248   -3.230801
40.700350   0.477556   -3.209758
40.790395   0.479870   -3.188764
40.880440   0.482190   -3.167819
40.970485   0.484516   -3.146923
41.060530   0.486847   -3.126075
41.150575   0.489184   -3.105276
41.240620   0.491527   -3.084525
41.330665   0.493876   -3.063822
41.420710   0.496230   -3.043167
41.510755   0.498590   -3.022560
41.600800   0.500956   -3.002001
41.690845   0.503328   -2.981490
41.780890   0.505705   -2.961027
41.870935   0.508088   -2.940610
41.960981   0.510477   -2.920242
42.051026   0.512871   -2.899920
42.141071   0.515271   -2.879646
42.231116   0.517676   -2.859418
42.321161   0.520087   -2.839238
42.411206   0.522504   -2.819104
42.501251   0.524926   -2.799017
42.591296   0.527354   -2.778977
42.681341   0.529788   -2.758983
42.771386   0.532227   -2.739035
42.861431   0.534671   -2.719134
42.951476   0.537121   -2.699278
43.041521   0.539577   -2.679469
43.131566   0.542038   -2.659706
43.221611   0.544504   -2.639988
43.311656   0.546976   -2.620316
43.401701   0.549454   -2.600690
43.491746   0.551936   -2.581110
43.581791   0.554425   -2.561574
43.671836   0.556918   -2.542084
43.761881   0.559417   -2.522640
43.851926   0.561922   -2.503240
43.941971   0.564432   -2.483886
44.032016   0.566947   -2.464576
44.122061   0.569467   -2.445311
44.212106   0.571993   -2.426091
44.302151   0.574524   -2.406916
44.392196   0.577061   -2.387785
44.482241   0.579602   -2.368699
44.572286   0.582149   -2.349657
44.662331   0.584701   -2.330659
44.752376   0.587259   -2.311706
44.842421   0.589821   -2.292796
44.932466   0.592389   -2.273931
45.022511   0.594962   -2.255110
45.112556   0.597540   -2.236332
45.202601   0.600123   -2.217598
45.292646   0.602711   -2.198908
45.382691   0.605304   -2.180262
45.472736   0.607903   -2.161659
45.562781   0.610506   -2.143100
45.652826   0.613115   -2.124584
45.742871   0.615728   -2.106111
45.832916   0.618346   -2.087681
45.922962   0.620970   -2.069295
46.013007   0.623598   -2.050951
46.103052   0.626231   -2.032651
46.193097   0.628870   -2.014394
46.283142   0.631513   -1.996179
46.373187   0.634161   -1.978007
46.463232   0.636813   -1.959878
46.553277   0.639471   -1.941791
46.643322   0.642133   -1.923747
46.733367   0.644801   -1.905746
46.823412   0.647473   -1.887787
46.913457   0.650149   -1.869870
47.003502   0.652831   -1.851995
47.093547   0.655517   -1.834163
47.183592   0.658207   -1.816372
47.273637   0.660903   -1.798624
47.363682   0.663603   -1.780918
47.453727   0.666307   -1.763254
47.543772   0.669017   -1.745631
47.633817   0.671730   -1.728051
47.723862   0.674449   -1.710512
47.813907   0.677171   -1.693015
47.903952   0.679899   -1.675559
47.993997   0.682630   -1.658145
48.084042   0.685366   -1.640772
48.174087   0.688107   -1.623441
48.264132   0.690852   -1.606151
48.354177   0.693601   -1.588903
48.444222   0.696355   -1.571695
48.534267   0.699112   -1.554529
48.624312   0.701875   -1.537404
48.714357   0.704641   -1.520320
48.804402   0.707412   -1.503278
48.894447   0.710187   -1.486276
48.984492   0.712966   -1.469315
49.074537   0.715749   -1.452394
49.164582   0.718536   -1.435515
49.254627   0.721327   -1.418676
49.344672   0.724123   -1.401878
49.434717   0.726922   -1.385121
49.524762   0.729726   -1.368404
49.614807   0.732533   -1.351728
49.704852   0.735344   -1.335092
49.794897   0.738160   -1.318497
49.884942   0.740979   -1.301942
49.974988   0.743802   -1.285427
50.065033   0.746629   -1.268953
50.155078   0.749459   -1.252519
50.245123   0.752294   -1.236125
50.335168   0.755132   -1.219771
50.425213   0.757974   -1.203457
50.515258   0.760819   -1.187184
50.605303   0.763669   -1.170950
50.695348   0.766522   -1.154756
50.785393   0.769378   -1.138603
50.875438   0.772238   -1.122489
50.965483   0.775101   -1.106414
51.055528   0.777968   -1.090380
51.145573   0.780839   -1.074385
51.235618   0.783713   -1.058430
51.325663   0.786590   -1.042515
51.415708   0.789471   -1.026639
51.505753   0.792355   -1.010803
51.595798   0.795242   -0.995006
51.685843   0.798133   -0.979249
51.775888   0.801027   -0.963531
51.865933   0.803924   -0.947853
51.955978   0.806824   -0.932214
52.046023   0.809727   -0.916614
52.136068   0.812633   -0.901053
52.226113   0.815543   -0.885532
52.316158   0.818455   -0.870050
52.406203   0.821371   -0.854607
52.496248   0.824289   -0.839204
