theta   d_times   d_db
0.000000   0.000000   -90.000000
0.001572   0.000002   -57.014929
0.003143   0.000008   -50.995955
0.004715   0.000018   -47.474409
0.006286   0.000032   -44.975706
0.007858   0.000050   -43.037509
0.009429   0.000072   -41.453855
0.011001   0.000097   -40.114870
0.012573   0.000127   -38.954966
0.014144   0.000161   -37.931836
0.015716   0.000199   -37.016595
0.017287   0.000241   -36.188639
0.018859   0.000286   -35.432754
0.020431   0.000336   -34.737387
0.022002   0.000390   -34.093559
0.023574   0.000447   -33.494149
0.025145   0.000509   -32.933418
0.026717   0.000575   -32.406673
0.028288   0.000644   -31.910025
0.029860   0.000718   -31.440216
0.031432   0.000795   -30.994491
0.033003   0.000877   -30.570498
0.034575   0.000962   -30.166213
0.036146   0.001052   -29.779883
0.037718   0.001146   -29.409977
0.039290   0.001243   -29.055154
0.040861   0.001345   -28.714229
0.042433   0.001450   -28.386153
0.044004   0.001560   -28.069990
0.045576   0.001673   -27.764902
0.047147   0.001791   -27.470139
0.048719   0.001912   -27.185022
0.050291   0.002038   -26.908938
0.051862   0.002167   -26.641330
0.053434   0.002301   -26.381692
0.055005   0.002438   -26.129561
0.056577   0.002580   -25.884514
0.058149   0.002725   -25.646161
0.059720   0.002875   -25.414145
0.061292   0.003028   -25.188136
0.062863   0.003186   -24.967830
0.064435   0.003347   -24.752944
0.066006   0.003513   -24.543217
0.067578   0.003683   -24.338406
0.069150   0.003856   -24.138283
0.070721   0.004034   -23.942638
0.072293   0.004216   -23.751273
0.073864   0.004401   -23.564005
0.075436   0.004591   -23.380659
0.077008   0.004785   -23.201074
0.078579   0.004983   -23.025098
0.080151   0.005185   -22.852587
0.081722   0.005391   -22.683406
0.083294   0.005601   -22.517428
0.084865   0.005815   -22.354533
0.086437   0.006033   -22.194607
0.088009   0.006255   -22.037543
0.089580   0.006482   -21.883240
0.091152   0.006712   -21.731600
0.092723   0.006946   -21.582534
0.094295   0.007185   -21.435953
0.095867   0.007427   -21.291775
0.097438   0.007674   -21.149922
0.099010   0.007924   -21.010320
0.100581   0.008179   -20.872896
0.102153   0.008438   -20.737584
0.103724   0.008701   -20.604318
0.105296   0.008968   -20.473036
0.106868   0.009239   -20.343680
0.108439   0.009514   -20.216193
0.110011   0.009794   -20.090521
0.111582   0.010077   -19.966612
0.113154   0.010365   -19.844416
0.114725   0.010656   -19.723887
0.116297   0.010952   -19.604978
0.117869   0.011252   -19.487646
0.119440   0.011556   -19.371849
0.121012   0.011864   -19.257546
0.122583   0.012177   -19.144699
0.124155   0.012493   -19.033270
0.125727   0.012814   -18.923223
0.127298   0.013139   -18.814524
0.128870   0.013467   -18.707140
0.130441   0.013801   -18.601038
0.132013   0.014138   -18.496187
0.133584   0.014479   -18.392559
0.135156   0.014825   -18.290123
0.136728   0.015175   -18.188852
0.138299   0.015528   -18.088720
0.139871   0.015887   -17.989700
0.141442   0.016249   -17.891767
0.143014   0.016615   -17.794897
0.144586   0.016986   -17.699067
0.146157   0.017361   -17.604254
0.147729   0.017740   -17.510437
0.149300   0.018123   -17.417593
0.150872   0.018511   -17.325702
0.152443   0.018903   -17.234744
0.154015   0.019299   -17.144701
0.155587   0.019699   -17.055553
0.157158   0.020104   -16.967282
0.158730   0.020512   -16.879871
0.160301   0.020925   -16.793302
0.161873   0.021342   -16.707559
0.163445   0.021764   -16.622626
0.165016   0.022190   -16.538487
0.166588   0.022620   -16.455126
0.168159   0.023054   -16.372530
0.169731   0.023493   -16.290684
0.171302   0.023936   -16.209573
0.172874   0.024383   -16.129185
0.174446   0.024834   -16.049505
0.176017   0.025290   -15.970522
0.177589   0.025750   -15.892222
0.179160   0.026214   -15.814594
0.180732   0.026683   -15.737625
0.182304   0.027156   -15.661305
0.183875   0.027634   -15.585621
0.185447   0.028115   -15.510563
0.187018   0.028601   -15.436120
0.188590   0.029092   -15.362282
0.190161   0.029587   -15.289038
0.191733   0.030086   -15.216379
0.193305   0.030589   -15.144296
0.194876   0.031097   -15.072777
0.196448   0.031610   -15.001815
0.198019   0.032126   -14.931401
0.199591   0.032647   -14.861525
0.201163   0.033173   -14.792179
0.202734   0.033703   -14.723355
0.204306   0.034237   -14.655044
0.205877   0.034776   -14.587239
0.207449   0.035319   -14.519932
0.209020   0.035866   -14.453115
0.210592   0.036418   -14.386781
0.212164   0.036975   -14.320922
0.213735   0.037536   -14.255531
0.215307   0.038101   -14.190602
0.216878   0.038671   -14.126128
0.218450   0.039245   -14.062101
0.220021   0.039824   -13.998516
0.221593   0.040408   -13.935366
0.223165   0.040995   -13.872645
0.224736   0.041588   -13.810347
0.226308   0.042185   -13.748465
0.227879   0.042786   -13.686994
0.229451   0.043392   -13.625928
0.231023   0.044002   -13.565262
0.232594   0.044617   -13.504990
0.234166   0.045237   -13.445106
0.235737   0.045861   -13.385606
0.237309   0.046489   -13.326485
0.238880   0.047122   -13.267736
0.240452   0.047760   -13.209355
0.242024   0.048402   -13.151338
0.243595   0.049049   -13.093680
0.245167   0.049701   -13.036375
0.246738   0.050357   -12.979420
0.248310   0.051017   -12.922809
0.249882   0.051683   -12.866539
0.251453   0.052353   -12.810604
0.253025   0.053027   -12.755002
0.254596   0.053707   -12.699727
0.256168   0.054390   -12.644776
0.257739   0.055079   -12.590144
0.259311   0.055772   -12.535827
0.260883   0.056470   -12.481823
0.262454   0.057173   -12.428126
0.264026   0.057880   -12.374734
0.265597   0.058592   -12.321642
0.267169   0.059308   -12.268846
0.268741   0.060030   -12.216345
0.270312   0.060756   -12.164133
0.271884   0.061486   -12.112207
0.273455   0.062222   -12.060565
0.275027   0.062962   -12.009203
0.276598   0.063707   -11.958117
0.278170   0.064457   -11.907304
0.279742   0.065211   -11.856762
0.281313   0.065971   -11.806488
0.282885   0.066735   -11.756477
0.284456   0.067504   -11.706727
0.286028   0.068277   -11.657236
0.287600   0.069056   -11.608001
0.289171   0.069839   -11.559018
0.290743   0.070627   -11.510284
0.292314   0.071420   -11.461798
0.293886   0.072218   -11.413557
0.295457   0.073020   -11.365557
0.297029   0.073828   -11.317796
0.298601   0.074640   -11.270272
0.300172   0.075457   -11.222982
0.301744   0.076279   -11.175924
0.303315   0.077106   -11.129095
0.304887   0.077938   -11.082493
0.306459   0.078775   -11.036115
0.308030   0.079617   -10.989959
0.309602   0.080463   -10.944023
0.311173   0.081315   -10.898305
0.312745   0.082171   -10.852802
0.314316   0.083033   -10.807513
0.315888   0.083899   -10.762434
0.317460   0.084770   -10.717564
0.319031   0.085647   -10.672901
0.320603   0.086528   -10.628443
0.322174   0.087414   -10.584188
0.323746   0.088305   -10.540133
0.325317   0.089202   -10.496277
0.326889   0.090103   -10.452618
0.328461   0.091009   -10.409154
0.330032   0.091920   -10.365883
0.331604   0.092837   -10.322803
0.333175   0.093758   -10.279913
0.334747   0.094685   -10.237210
0.336319   0.095616   -10.194693
0.337890   0.096553   -10.152361
0.339462   0.097494   -10.110210
0.341033   0.098441   -10.068241
0.342605   0.099393   -10.026450
0.344176   0.100350   -9.984836
0.345748   0.101312   -9.943399
0.347320   0.102279   -9.902135
0.348891   0.103251   -9.861044
0.350463   0.104229   -9.820124
0.352034   0.105211   -9.779374
0.353606   0.106199   -9.738791
0.355178   0.107192   -9.698375
0.356749   0.108190   -9.658124
0.358321   0.109193   -9.618037
0.359892   0.110202   -9.578111
0.361464   0.111216   -9.538346
0.363035   0.112234   -9.498741
0.364607   0.113258   -9.459293
0.366179   0.114288   -9.420002
0.367750   0.115322   -9.380866
0.369322   0.116362   -9.341884
0.370893   0.117407   -9.303054
0.372465   0.118457   -9.264376
0.374037   0.119513   -9.225848
0.375608   0.120574   -9.187469
0.377180   0.121640   -9.149237
0.378751   0.122711   -9.111152
0.380323   0.123788   -9.073211
0.381894   0.124870   -9.035415
0.383466   0.125957   -8.997761
0.385038   0.127050   -8.960249
0.386609   0.128148   -8.922877
0.388181   0.129251   -8.885645
0.389752   0.130360   -8.848550
0.391324   0.131474   -8.811593
0.392896   0.132594   -8.774772
0.394467   0.133718   -8.738086
0.396039   0.134849   -8.701533
0.397610   0.135984   -8.665114
0.399182   0.137125   -8.628826
0.400753   0.138272   -8.592669
0.402325   0.139423   -8.556642
0.403897   0.140581   -8.520743
0.405468   0.141743   -8.484973
0.407040   0.142911   -8.449329
0.408611   0.144085   -8.413811
0.410183   0.145264   -8.378418
0.411755   0.146449   -8.343148
0.413326   0.147639   -8.308002
0.414898   0.148834   -8.272978
0.416469   0.150035   -8.238075
0.418041   0.151241   -8.203293
0.419612   0.152453   -8.168630
0.421184   0.153671   -8.134085
0.422756   0.154894   -8.099658
0.424327   0.156122   -8.065348
0.425899   0.157356   -8.031155
0.427470   0.158596   -7.997076
0.429042   0.159841   -7.963111
0.430614   0.161092   -7.929261
0.432185   0.162348   -7.895523
0.433757   0.163610   -7.861896
0.435328   0.164878   -7.828381
0.436900   0.166151   -7.794977
0.438471   0.167429   -7.761682
0.440043   0.168714   -7.728496
0.441615   0.170004   -7.695418
0.443186   0.171299   -7.662447
0.444758   0.172600   -7.629584
0.446329   0.173907   -7.596826
0.447901   0.175220   -7.564173
0.449472   0.176538   -7.531625
0.451044   0.177862   -7.499180
0.452616   0.179191   -7.466839
0.454187   0.180526   -7.434600
0.455759   0.181867   -7.402463
0.457330   0.183213   -7.370427
0.458902   0.184566   -7.338492
0.460474   0.185924   -7.306656
0.462045   0.187287   -7.274920
0.463617   0.188657   -7.243282
0.465188   0.190032   -7.211741
0.466760   0.191412   -7.180299
0.468331   0.192799   -7.148952
0.469903   0.194191   -7.117702
0.471475   0.195589   -7.086547
0.473046   0.196993   -7.055487
0.474618   0.198403   -7.024521
0.476189   0.199818   -6.993649
0.477761   0.201239   -6.962870
0.479333   0.202666   -6.932184
0.480904   0.204099   -6.901589
0.482476   0.205538   -6.871086
0.484047   0.206982   -6.840673
0.485619   0.208432   -6.810351
0.487190   0.209888   -6.780119
0.488762   0.211350   -6.749976
0.490334   0.212818   -6.719921
0.491905   0.214291   -6.689955
0.493477   0.215771   -6.660076
0.495048   0.217256   -6.630284
0.496620   0.218747   -6.600579
0.498192   0.220244   -6.570960
0.499763   0.221747   -6.541427
0.501335   0.223255   -6.511979
0.502906   0.224770   -6.482615
0.504478   0.226291   -6.453336
0.506049   0.227817   -6.424140
0.507621   0.229349   -6.395027
0.509193   0.230887   -6.365997
0.510764   0.232432   -6.337050
0.512336   0.233982   -6.308184
0.513907   0.235537   -6.279400
0.515479   0.237099   -6.250696
0.517051   0.238667   -6.222073
0.518622   0.240241   -6.193530
0.520194   0.241821   -6.165067
0.521765   0.243406   -6.136682
0.523337   0.244998   -6.108377
0.524908   0.246595   -6.080150
0.526480   0.248199   -6.052000
0.528052   0.249808   -6.023929
0.529623   0.251424   -5.995934
0.531195   0.253045   -5.968016
0.532766   0.254673   -5.940174
0.534338   0.256306   -5.912408
0.535910   0.257946   -5.884718
0.537481   0.259591   -5.857103
0.539053   0.261242   -5.829562
0.540624   0.262900   -5.802096
0.542196   0.264563   -5.774704
0.543767   0.266233   -5.747386
0.545339   0.267908   -5.720140
0.546911   0.269590   -5.692968
0.548482   0.271277   -5.665868
0.550054   0.272971   -5.638840
0.551625   0.274670   -5.611884
0.553197   0.276376   -5.584999
0.554768   0.278087   -5.558186
0.556340   0.279805   -5.531443
0.557912   0.281529   -5.504771
0.559483   0.283259   -5.478168
0.561055   0.284994   -5.451636
0.562626   0.286736   -5.425173
0.564198   0.288484   -5.398779
0.565770   0.290238   -5.372453
0.567341   0.291998   -5.346197
0.568913   0.293764   -5.320008
0.570484   0.295537   -5.293887
0.572056   0.297315   -5.267834
0.573627   0.299099   -5.241847
0.575199   0.300890   -5.215928
0.576771   0.302686   -5.190075
0.578342   0.304489   -5.164289
0.579914   0.306297   -5.138569
0.581485   0.308112   -5.112914
0.583057   0.309933   -5.087324
0.584629   0.311760   -5.061800
0.586200   0.313593   -5.036341
0.587772   0.315432   -5.010946
0.589343   0.317277   -4.985615
0.590915   0.319128   -4.960349
0.592486   0.320985   -4.935146
0.594058   0.322849   -4.910006
0.595630   0.324718   -4.884930
0.597201   0.326594   -4.859917
0.598773   0.328476   -4.834966
0.600344   0.330364   -4.810078
0.601916   0.332258   -4.785252
0.603488   0.334158   -4.760488
0.605059   0.336064   -4.735785
0.606631   0.337976   -4.711144
0.608202   0.339894   -4.686563
0.609774   0.341819   -4.662044
0.611345   0.343749   -4.637586
0.612917   0.345686   -4.613187
0.614489   0.347628   -4.588849
0.616060   0.349577   -4.564571
0.617632   0.351532   -4.540352
0.619203   0.353493   -4.516193
0.620775   0.355460   -4.492094
0.622347   0.357433   -4.468053
0.623918   0.359412   -4.444071
0.625490   0.361398   -4.420147
0.627061   0.363389   -4.396282
0.628633   0.365387   -4.372475
0.630204   0.367390   -4.348725
0.631776   0.369400   -4.325034
0.633348   0.371416   -4.301400
0.634919   0.373437   -4.277823
0.636491   0.375465   -4.254303
0.638062   0.377499   -4.230840
0.639634   0.379539   -4.207433
0.641206   0.381585   -4.184083
0.642777   0.383637   -4.160790
0.644349   0.385696   -4.137552
0.645920   0.387760   -4.114370
0.647492   0.389830   -4.091243
0.649063   0.391907   -4.068173
0.650635   0.393989   -4.045157
0.652207   0.396078   -4.022196
0.653778   0.398172   -3.999290
0.655350   0.400273   -3.976439
0.656921   0.402379   -3.953643
0.658493   0.404492   -3.930900
0.660064   0.406611   -3.908212
0.661636   0.408735   -3.885578
0.663208   0.410866   -3.862997
0.664779   0.413003   -3.840470
0.666351   0.415146   -3.817997
0.667922   0.417294   -3.795576
0.669494   0.419449   -3.773209
0.671066   0.421610   -3.750895
0.672637   0.423776   -3.728633
0.674209   0.425949   -3.706424
0.675780   0.428128   -3.684267
0.677352   0.430312   -3.662163
0.678923   0.432503   -3.640110
0.680495   0.434699   -3.618110
0.682067   0.436902   -3.596161
0.683638   0.439110   -3.574264
0.685210   0.441325   -3.552418
0.686781   0.443545   -3.530624
0.688353   0.445771   -3.508880
0.689925   0.448003   -3.487188
0.691496   0.450241   -3.465546
0.693068   0.452485   -3.443955
0.694639   0.454735   -3.422415
0.696211   0.456991   -3.400925
0.697782   0.459252   -3.379485
0.699354   0.461520   -3.358096
0.700926   0.463793   -3.336756
0.702497   0.466072   -3.315466
0.704069   0.468357   -3.294226
0.705640   0.470648   -3.273035
0.707212   0.472945   -3.251894
0.708784   0.475248   -3.230801
0.710355   0.477556   -3.209758
0.711927   0.479870   -3.188764
0.713498   0.482190   -3.167819
0.715070   0.484516   -3.146923
0.716641   0.486847   -3.126075
0.718213   0.489184   -3.105276
0.719785   0.491527   -3.084525
0.721356   0.493876   -3.063822
0.722928   0.496230   -3.043167
0.724499   0.498590   -3.022560
0.726071   0.500956   -3.002001
0.727643   0.503328   -2.981490
0.729214   0.505705   -2.961027
0.730786   0.508088   -2.940610
0.732357   0.510477   -2.920242
0.733929   0.512871   -2.899920
0.735500   0.515271   -2.879646
0.737072   0.517676   -2.859418
0.738644   0.520087   -2.839238
0.740215   0.522504   -2.819104
0.741787   0.524926   -2.799017
0.743358   0.527354   -2.778977
0.744930   0.529788   -2.758983
0.746502   0.532227   -2.739035
0.748073   0.534671   -2.719134
0.749645   0.537121   -2.699278
0.751216   0.539577   -2.679469
0.752788   0.542038   -2.659706
0.754359   0.544504   -2.639988
0.755931   0.546976   -2.620316
0.757503   0.549454   -2.600690
0.759074   0.551936   -2.581110
0.760646   0.554425   -2.561574
0.762217   0.556918   -2.542084
0.763789   0.559417   -2.522640
0.765360   0.561922   -2.503240
0.766932   0.564432   -2.483886
0.768504   0.566947   -2.464576
0.770075   0.569467   -2.445311
0.771647   0.571993   -2.426091
0.773218   0.574524   -2.406916
0.774790   0.577061   -2.387785
0.776362   0.579602   -2.368699
0.777933   0.582149   -2.349657
0.779505   0.584701   -2.330659
0.781076   0.587259   -2.311706
0.782648   0.589821   -2.292796
0.784219   0.592389   -2.273931
0.785791   0.594962   -2.255110
0.787363   0.597540   -2.236332
0.788934   0.600123   -2.217598
0.790506   0.602711   -2.198908
0.792077   0.605304   -2.180262
0.793649   0.607903   -2.161659
0.795221   0.610506   -2.143100
0.796792   0.613115   -2.124584
0.798364   0.615728   -2.106111
0.799935   0.618346   -2.087681
0.801507   0.620970   -2.069295
0.803078   0.623598   -2.050951
0.804650   0.626231   -2.032651
0.806222   0.628870   -2.014394
0.807793   0.631513   -1.996179
0.809365   0.634161   -1.978007
0.810936   0.636813   -1.959878
0.812508   0.639471   -1.941791
0.814080   0.642133   -1.923747
0.815651   0.644801   -1.905746
0.817223   0.647473   -1.887787
0.818794   0.650149   -1.869870
0.820366   0.652831   -1.851995
0.821937   0.655517   -1.834163
0.823509   0.658207   -1.816372
0.825081   0.660903   -1.798624
0.826652   0.663603   -1.780918
0.828224   0.666307   -1.763254
0.829795   0.669017   -1.745631
0.831367   0.671730   -1.728051
0.832939   0.674449   -1.710512
0.834510   0.677171   -1.693015
0.836082   0.679899   -1.675559
0.837653   0.682630   -1.658145
0.839225   0.685366   -1.640772
0.840796   0.688107   -1.623441
0.842368   0.690852   -1.606151
0.843940   0.693601   -1.588903
0.845511   0.696355   -1.571695
0.847083   0.699112   -1.554529
0.848654   0.701875   -1.537404
0.850226   0.704641   -1.520320
0.851798   0.707412   -1.503278
0.853369   0.710187   -1.486276
0.854941   0.712966   -1.469315
0.856512   0.715749   -1.452394
0.858084   0.718536   -1.435515
0.859655   0.721327   -1.418676
0.861227   0.724123   -1.401878
0.862799   0.726922   -1.385121
0.864370   0.729726   -1.368404
0.865942   0.732533   -1.351728
0.867513   0.735344   -1.335092
0.869085   0.738160   -1.318497
0.870656   0.740979   -1.301942
0.872228   0.743802   -1.285427
0.873800   0.746629   -1.268953
0.875371   0.749459   -1.252519
0.876943   0.752294   -1.236125
0.878514   0.755132   -1.219771
0.880086   0.757974   -1.203457
0.881658   0.760819   -1.187184
0.883229   0.763669   -1.170950
0.884801   0.766522   -1.154756
0.886372   0.769378   -1.138603
0.887944   0.772238   -1.122489
0.889515   0.775101   -1.106414
0.891087   0.777968   -1.090380
0.892659   0.780839   -1.074385
0.894230   0.783713   -1.058430
0.895802   0.786590   -1.042515
0.897373   0.789471   -1.026639
0.898945   0.792355   -1.010803
0.900517   0.795242   -0.995006
0.902088   0.798133   -0.979249
0.903660   0.801027   -0.963531
0.905231   0.803924   -0.947853
0.906803   0.806824   -0.932214
0.908374   0.809727   -0.916614
0.909946   0.812633   -0.901053
0.911518   0.815543   -0.885532
0.913089   0.818455   -0.870050
0.914661   0.821371   -0.854607
0.916232   0.824289   -0.839204
0.917804   0.827211   -0.823839
0.919376   0.830135   -0.808513
0.920947   0.833062   -0.793227
0.922519   0.835992   -0.777979
0.924090   0.838925   -0.762771
0.925662   0.841860   -0.747601
0.927233   0.844798   -0.732470
0.928805   0.847739   -0.717378
0.930377   0.850683   -0.702325
0.931948   0.853629   -0.687310
0.933520   0.856577   -0.672335
0.935091   0.859528   -0.657398
0.936663   0.862482   -0.642499
0.938235   0.865438   -0.627640
